d3_l10,,d3_l15,,d3_l20,,,,,
Freq(Hz),SPL(dB),Freq(Hz),SPL(dB),Freq(Hz),SPL(dB),,,,
20.141602,51.602,20.141602,51.647,20.141602,51.886,,,,
20.507812,51.955,20.507812,52.045,20.507812,52.284,,,,
20.874023,52.331,20.874023,52.39,20.874023,52.656,,,,
21.240234,52.712,21.240234,52.688,21.240234,52.98,,,,
21.606445,53.097,21.606445,53.015,21.606445,53.292,,,,
21.972656,53.474,21.972656,53.413,21.972656,53.636,,,,
22.338867,53.835,22.338867,53.848,22.338867,54.038,,,,
22.705078,54.19,22.705078,54.232,22.705078,54.481,,,,
23.071289,54.564,23.071289,54.492,23.071289,54.917,,,,
23.4375,54.981,23.4375,54.635,23.4375,55.288,,,,
23.803711,55.435,23.803711,54.764,23.803711,55.561,,,,
24.169922,55.889,24.169922,55.031,24.169922,55.741,,,,
24.536133,56.294,24.536133,55.51,24.536133,55.884,,,,
24.902344,56.616,24.902344,56.115,24.902344,56.076,,,,
25.268555,56.859,25.268555,56.68,25.268555,56.389,,,,
25.634766,57.074,25.634766,57.083,25.634766,56.827,,,,
26.000977,57.338,26.000977,57.305,26.000977,57.319,,,,
26.367188,57.707,26.367188,57.429,26.367188,57.773,,,,
26.733398,58.167,26.733398,57.591,26.733398,58.133,,,,
27.099609,58.639,27.099609,57.887,27.099609,58.404,,,,
27.46582,59.03,27.46582,58.285,27.46582,58.638,,,,
27.832031,59.282,27.832031,58.662,27.832031,58.902,,,,
28.198242,59.395,28.198242,58.904,28.198242,59.226,,,,
28.564453,59.433,28.564453,58.983,28.564453,59.583,,,,
28.930664,59.494,28.930664,58.973,28.930664,59.911,,,,
29.296875,59.653,29.296875,59.018,29.296875,60.162,,,,
29.663086,59.913,29.663086,59.235,29.663086,60.333,,,,
30.029297,60.208,30.029297,59.617,30.029297,60.466,,,,
30.395508,60.474,30.395508,60.05,30.395508,60.62,,,,
30.761719,60.689,30.761719,60.422,30.761719,60.831,,,,
31.12793,60.886,31.12793,60.698,31.12793,61.093,,,,
31.494141,61.113,31.494141,60.922,31.494141,61.363,,,,
31.860352,61.391,31.860352,61.165,31.860352,61.601,,,,
32.226562,61.69,32.226562,61.467,32.226562,61.794,,,,
32.592773,61.961,32.592773,61.8,32.592773,61.963,,,,
32.958984,62.171,32.958984,62.1,32.958984,62.14,,,,
33.325195,62.332,33.325195,62.318,33.325195,62.35,,,,
33.691406,62.481,33.691406,62.453,33.691406,62.591,,,,
34.057617,62.658,34.057617,62.552,34.057617,62.841,,,,
34.423828,62.87,34.423828,62.67,34.423828,63.077,,,,
34.790039,63.093,34.790039,62.843,34.790039,63.284,,,,
35.15625,63.298,35.15625,63.057,35.15625,63.466,,,,
35.522461,63.478,35.522461,63.278,35.522461,63.636,,,,
35.888672,63.648,35.888672,63.476,35.888672,63.804,,,,
36.254883,63.832,36.254883,63.647,36.254883,63.976,,,,
36.621094,64.037,36.621094,63.809,36.621094,64.152,,,,
36.987305,64.249,36.987305,63.982,36.987305,64.33,,,,
37.353516,64.446,37.353516,64.171,37.353516,64.513,,,,
37.719727,64.619,37.719727,64.364,37.719727,64.704,,,,
38.085938,64.775,38.085938,64.547,38.085938,64.9,,,,
38.452148,64.934,38.452148,64.711,38.452148,65.094,,,,
38.818359,65.107,38.818359,64.864,38.818359,65.277,,,,
39.18457,65.291,39.18457,65.02,39.18457,65.445,,,,
39.550781,65.472,39.550781,65.188,39.550781,65.602,,,,
39.916992,65.636,39.916992,65.37,39.916992,65.756,,,,
40.283203,65.784,40.283203,65.555,40.283203,65.913,,,,
40.649414,65.927,40.649414,65.733,40.649414,66.074,,,,
41.015625,66.076,41.015625,65.896,41.015625,66.23,,,,
41.381836,66.234,41.381836,66.047,41.381836,66.375,,,,
41.748047,66.397,41.748047,66.191,41.748047,66.513,,,,
42.114258,66.556,42.114258,66.337,42.114258,66.653,,,,
42.480469,66.707,42.480469,66.49,42.480469,66.806,,,,
42.84668,66.854,42.84668,66.647,42.84668,66.974,,,,
43.212891,67.003,43.212891,66.804,43.212891,67.149,,,,
43.579102,67.155,43.579102,66.955,43.579102,67.317,,,,
43.945312,67.309,43.945312,67.099,43.945312,67.471,,,,
44.311523,67.459,44.311523,67.24,44.311523,67.61,,,,
44.677734,67.6,44.677734,67.381,44.677734,67.742,,,,
45.043945,67.733,45.043945,67.528,45.043945,67.874,,,,
45.410156,67.863,45.410156,67.678,45.410156,68.006,,,,
45.776367,67.997,45.776367,67.828,45.776367,68.135,,,,
46.142578,68.141,46.142578,67.97,46.142578,68.261,,,,
46.508789,68.296,46.508789,68.104,46.508789,68.387,,,,
46.875,68.456,46.875,68.23,46.875,68.52,,,,
47.241211,68.612,47.241211,68.351,47.241211,68.665,,,,
47.607422,68.755,47.607422,68.473,47.607422,68.817,,,,
47.973633,68.881,47.973633,68.599,47.973633,68.967,,,,
48.339844,68.994,48.339844,68.731,48.339844,69.105,,,,
48.706055,69.101,48.706055,68.867,48.706055,69.227,,,,
49.072266,69.211,49.072266,69.007,49.072266,69.338,,,,
49.438477,69.331,49.438477,69.148,49.438477,69.447,,,,
49.804688,69.463,49.804688,69.287,49.804688,69.561,,,,
50.170898,69.603,50.170898,69.421,50.170898,69.682,,,,
50.537109,69.742,50.537109,69.547,50.537109,69.809,,,,
50.90332,69.875,50.90332,69.666,50.90332,69.939,,,,
51.269531,69.997,51.269531,69.781,51.269531,70.07,,,,
51.635742,70.11,51.635742,69.892,51.635742,70.204,,,,
52.001953,70.217,52.001953,70,52.001953,70.337,,,,
52.368164,70.325,52.368164,70.107,52.368164,70.467,,,,
52.734375,70.437,52.734375,70.213,52.734375,70.59,,,,
53.100586,70.554,53.100586,70.321,53.100586,70.703,,,,
53.466797,70.672,53.466797,70.432,53.466797,70.806,,,,
53.833008,70.788,53.833008,70.547,53.833008,70.903,,,,
54.199219,70.898,54.199219,70.663,54.199219,71.001,,,,
54.56543,71.001,54.56543,70.775,54.56543,71.102,,,,
54.931641,71.1,54.931641,70.883,54.931641,71.206,,,,
55.297852,71.199,55.297852,70.987,55.297852,71.311,,,,
55.664062,71.301,55.664062,71.091,55.664062,71.416,,,,
56.030273,71.404,56.030273,71.198,56.030273,71.518,,,,
56.396484,71.508,56.396484,71.306,56.396484,71.618,,,,
56.762695,71.611,56.762695,71.414,56.762695,71.716,,,,
57.128906,71.713,57.128906,71.519,57.128906,71.813,,,,
57.495117,71.816,57.495117,71.621,57.495117,71.912,,,,
57.861328,71.921,57.861328,71.722,57.861328,72.012,,,,
58.227539,72.029,58.227539,71.823,58.227539,72.115,,,,
58.59375,72.138,58.59375,71.926,58.59375,72.22,,,,
58.959961,72.244,58.959961,72.028,58.959961,72.327,,,,
59.326172,72.348,59.326172,72.129,59.326172,72.431,,,,
59.692383,72.447,59.692383,72.225,59.692383,72.53,,,,
60.058594,72.543,60.058594,72.318,60.058594,72.623,,,,
60.424805,72.637,60.424805,72.409,60.424805,72.712,,,,
60.791016,72.729,60.791016,72.5,60.791016,72.801,,,,
61.157227,72.821,61.157227,72.593,61.157227,72.893,,,,
61.523438,72.911,61.523438,72.686,61.523438,72.989,,,,
61.889648,73.001,61.889648,72.778,61.889648,73.087,,,,
62.255859,73.092,62.255859,72.869,62.255859,73.183,,,,
62.62207,73.184,62.62207,72.958,62.62207,73.273,,,,
62.988281,73.275,62.988281,73.047,62.988281,73.359,,,,
63.354492,73.364,63.354492,73.136,63.354492,73.444,,,,
63.720703,73.452,63.720703,73.225,63.720703,73.53,,,,
64.086914,73.537,64.086914,73.314,64.086914,73.618,,,,
64.453125,73.622,64.453125,73.402,64.453125,73.708,,,,
64.819336,73.707,64.819336,73.49,64.819336,73.796,,,,
65.185547,73.793,65.185547,73.579,65.185547,73.88,,,,
65.551758,73.88,65.551758,73.667,65.551758,73.962,,,,
65.917969,73.966,65.917969,73.754,65.917969,74.043,,,,
66.28418,74.052,66.28418,73.838,66.28418,74.125,,,,
66.650391,74.135,66.650391,73.919,66.650391,74.208,,,,
67.016602,74.218,67.016602,73.999,67.016602,74.29,,,,
67.382812,74.301,67.382812,74.078,67.382812,74.371,,,,
67.749023,74.385,67.749023,74.158,67.749023,74.45,,,,
68.115234,74.469,68.115234,74.241,68.115234,74.529,,,,
68.481445,74.551,68.481445,74.325,68.481445,74.61,,,,
68.847656,74.631,68.847656,74.408,68.847656,74.693,,,,
69.213867,74.707,69.213867,74.489,69.213867,74.777,,,,
69.580078,74.782,69.580078,74.568,69.580078,74.861,,,,
69.946289,74.858,69.946289,74.644,69.946289,74.942,,,,
70.3125,74.935,70.3125,74.719,70.3125,75.02,,,,
70.678711,75.012,70.678711,74.794,70.678711,75.097,,,,
71.044922,75.089,71.044922,74.869,71.044922,75.173,,,,
71.411133,75.164,71.411133,74.946,71.411133,75.249,,,,
71.777344,75.236,71.777344,75.023,71.777344,75.325,,,,
72.143555,75.309,72.143555,75.1,72.143555,75.4,,,,
72.509766,75.382,72.509766,75.177,72.509766,75.473,,,,
72.875977,75.457,72.875977,75.253,72.875977,75.545,,,,
73.242188,75.533,73.242188,75.328,73.242188,75.618,,,,
73.608398,75.607,73.608398,75.401,73.608398,75.69,,,,
73.974609,75.68,73.974609,75.473,73.974609,75.762,,,,
74.34082,75.751,74.34082,75.543,74.34082,75.833,,,,
74.707031,75.82,74.707031,75.612,74.707031,75.902,,,,
75.073242,75.889,75.073242,75.681,75.073242,75.969,,,,
75.439453,75.958,75.439453,75.751,75.439453,76.035,,,,
75.805664,76.027,75.805664,75.82,75.805664,76.102,,,,
76.171875,76.095,76.171875,75.889,76.171875,76.171,,,,
76.538086,76.163,76.538086,75.958,76.538086,76.241,,,,
76.904297,76.232,76.904297,76.025,76.904297,76.312,,,,
77.270508,76.302,77.270508,76.092,77.270508,76.381,,,,
77.636719,76.373,77.636719,76.159,77.636719,76.448,,,,
78.00293,76.443,78.00293,76.227,78.00293,76.514,,,,
78.369141,76.51,78.369141,76.294,78.369141,76.579,,,,
78.735352,76.574,78.735352,76.36,78.735352,76.645,,,,
79.101562,76.635,79.101562,76.425,79.101562,76.711,,,,
79.467773,76.695,79.467773,76.489,79.467773,76.776,,,,
79.833984,76.755,79.833984,76.554,79.833984,76.842,,,,
80.200195,76.817,80.200195,76.619,80.200195,76.906,,,,
80.566406,76.882,80.566406,76.684,80.566406,76.969,,,,
80.932617,76.947,80.932617,76.75,80.932617,77.032,,,,
81.298828,77.013,81.298828,76.814,81.298828,77.096,,,,
81.665039,77.078,81.665039,76.876,81.665039,77.16,,,,
82.03125,77.141,82.03125,76.937,82.03125,77.224,,,,
82.397461,77.202,82.397461,76.997,82.397461,77.287,,,,
82.763672,77.261,82.763672,77.056,82.763672,77.349,,,,
83.129883,77.32,83.129883,77.117,83.129883,77.408,,,,
83.496094,77.378,83.496094,77.178,83.496094,77.465,,,,
83.862305,77.437,83.862305,77.239,83.862305,77.523,,,,
84.228516,77.497,84.228516,77.301,84.228516,77.581,,,,
84.594727,77.557,84.594727,77.361,84.594727,77.641,,,,
84.960938,77.618,84.960938,77.42,84.960938,77.702,,,,
85.327148,77.677,85.327148,77.479,85.327148,77.763,,,,
85.693359,77.736,85.693359,77.536,85.693359,77.823,,,,
86.05957,77.793,86.05957,77.593,86.05957,77.88,,,,
86.425781,77.85,86.425781,77.65,86.425781,77.936,,,,
86.791992,77.906,86.791992,77.707,86.791992,77.991,,,,
87.158203,77.962,87.158203,77.765,87.158203,78.048,,,,
87.524414,78.019,87.524414,77.823,87.524414,78.106,,,,
87.890625,78.075,87.890625,77.881,87.890625,78.164,,,,
88.256836,78.131,88.256836,77.938,88.256836,78.222,,,,
88.623047,78.186,88.623047,77.994,88.623047,78.279,,,,
88.989258,78.242,88.989258,78.049,88.989258,78.335,,,,
89.355469,78.298,89.355469,78.103,89.355469,78.39,,,,
89.72168,78.354,89.72168,78.158,89.72168,78.443,,,,
90.087891,78.409,90.087891,78.213,90.087891,78.496,,,,
90.454102,78.463,90.454102,78.269,90.454102,78.548,,,,
90.820312,78.516,90.820312,78.324,90.820312,78.601,,,,
91.186523,78.567,91.186523,78.378,91.186523,78.653,,,,
91.552734,78.618,91.552734,78.432,91.552734,78.704,,,,
91.918945,78.669,91.918945,78.485,91.918945,78.754,,,,
92.285156,78.72,92.285156,78.538,92.285156,78.803,,,,
92.651367,78.772,92.651367,78.59,92.651367,78.852,,,,
93.017578,78.824,93.017578,78.643,93.017578,78.9,,,,
93.383789,78.875,93.383789,78.695,93.383789,78.95,,,,
93.75,78.926,93.75,78.745,93.75,79.002,,,,
94.116211,78.978,94.116211,78.794,94.116211,79.056,,,,
94.482422,79.029,94.482422,78.842,94.482422,79.111,,,,
94.848633,79.081,94.848633,78.89,94.848633,79.165,,,,
95.214844,79.133,95.214844,78.939,95.214844,79.218,,,,
95.581055,79.184,95.581055,78.988,95.581055,79.269,,,,
95.947266,79.235,95.947266,79.039,95.947266,79.32,,,,
96.313477,79.284,96.313477,79.091,96.313477,79.37,,,,
96.679688,79.333,96.679688,79.142,96.679688,79.42,,,,
97.045898,79.381,97.045898,79.192,97.045898,79.469,,,,
97.412109,79.428,97.412109,79.241,97.412109,79.518,,,,
97.77832,79.475,97.77832,79.29,97.77832,79.566,,,,
98.144531,79.522,98.144531,79.339,98.144531,79.614,,,,
98.510742,79.568,98.510742,79.388,98.510742,79.662,,,,
98.876953,79.614,98.876953,79.437,98.876953,79.71,,,,
99.243164,79.66,99.243164,79.486,99.243164,79.757,,,,
99.609375,79.707,99.609375,79.533,99.609375,79.805,,,,
99.975586,79.754,99.975586,79.58,99.975586,79.852,,,,
100.341797,79.8,100.341797,79.626,100.341797,79.898,,,,
100.708008,79.847,100.708008,79.672,100.708008,79.943,,,,
101.074219,79.892,101.074219,79.718,101.074219,79.989,,,,
101.44043,79.937,101.44043,79.765,101.44043,80.034,,,,
101.806641,79.981,101.806641,79.811,101.806641,80.079,,,,
102.172852,80.025,102.172852,79.857,102.172852,80.124,,,,
102.539062,80.069,102.539062,79.902,102.539062,80.168,,,,
102.905273,80.113,102.905273,79.946,102.905273,80.212,,,,
103.271484,80.158,103.271484,79.99,103.271484,80.257,,,,
103.637695,80.202,103.637695,80.034,103.637695,80.301,,,,
104.003906,80.247,104.003906,80.078,104.003906,80.346,,,,
104.370117,80.291,104.370117,80.121,104.370117,80.39,,,,
104.736328,80.335,104.736328,80.164,104.736328,80.434,,,,
105.102539,80.378,105.102539,80.207,105.102539,80.478,,,,
105.46875,80.42,105.46875,80.25,105.46875,80.521,,,,
105.834961,80.462,105.834961,80.294,105.834961,80.564,,,,
106.201172,80.504,106.201172,80.337,106.201172,80.607,,,,
106.567383,80.546,106.567383,80.381,106.567383,80.649,,,,
106.933594,80.587,106.933594,80.424,106.933594,80.692,,,,
107.299805,80.628,107.299805,80.467,107.299805,80.735,,,,
107.666016,80.67,107.666016,80.51,107.666016,80.777,,,,
108.032227,80.711,108.032227,80.552,108.032227,80.819,,,,
108.398438,80.753,108.398438,80.593,108.398438,80.861,,,,
108.764648,80.794,108.764648,80.635,108.764648,80.902,,,,
109.130859,80.836,109.130859,80.676,109.130859,80.943,,,,
109.49707,80.878,109.49707,80.717,109.49707,80.983,,,,
109.863281,80.92,109.863281,80.757,109.863281,81.023,,,,
110.229492,80.961,110.229492,80.797,110.229492,81.063,,,,
110.595703,81.001,110.595703,80.837,110.595703,81.104,,,,
110.961914,81.04,110.961914,80.876,110.961914,81.144,,,,
111.328125,81.079,111.328125,80.916,111.328125,81.185,,,,
111.694336,81.118,111.694336,80.956,111.694336,81.224,,,,
112.060547,81.158,112.060547,80.996,112.060547,81.264,,,,
112.426758,81.197,112.426758,81.036,112.426758,81.302,,,,
112.792969,81.236,112.792969,81.077,112.792969,81.341,,,,
113.15918,81.275,113.15918,81.117,113.15918,81.379,,,,
113.525391,81.313,113.525391,81.157,113.525391,81.418,,,,
113.891602,81.35,113.891602,81.196,113.891602,81.457,,,,
114.257812,81.387,114.257812,81.234,114.257812,81.496,,,,
114.624023,81.423,114.624023,81.272,114.624023,81.535,,,,
114.990234,81.459,114.990234,81.31,114.990234,81.573,,,,
115.356445,81.495,115.356445,81.347,115.356445,81.611,,,,
115.722656,81.532,115.722656,81.385,115.722656,81.649,,,,
116.088867,81.568,116.088867,81.423,116.088867,81.686,,,,
116.455078,81.605,116.455078,81.461,116.455078,81.723,,,,
116.821289,81.642,116.821289,81.498,116.821289,81.76,,,,
117.1875,81.679,117.1875,81.536,117.1875,81.797,,,,
117.553711,81.715,117.553711,81.573,117.553711,81.834,,,,
117.919922,81.751,117.919922,81.61,117.919922,81.871,,,,
118.286133,81.787,118.286133,81.646,118.286133,81.908,,,,
118.652344,81.822,118.652344,81.682,118.652344,81.945,,,,
119.018555,81.857,119.018555,81.718,119.018555,81.982,,,,
119.384766,81.893,119.384766,81.754,119.384766,82.019,,,,
119.750977,81.928,119.750977,81.79,119.750977,82.055,,,,
120.117188,81.963,120.117188,81.827,120.117188,82.091,,,,
120.483398,81.999,120.483398,81.862,120.483398,82.126,,,,
120.849609,82.034,120.849609,81.898,120.849609,82.16,,,,
121.21582,82.069,121.21582,81.932,121.21582,82.194,,,,
121.582031,82.104,121.582031,81.967,121.582031,82.228,,,,
121.948242,82.139,121.948242,82.002,121.948242,82.262,,,,
122.314453,82.173,122.314453,82.036,122.314453,82.296,,,,
122.680664,82.207,122.680664,82.072,122.680664,82.33,,,,
123.046875,82.241,123.046875,82.107,123.046875,82.364,,,,
123.413086,82.276,123.413086,82.143,123.413086,82.398,,,,
123.779297,82.31,123.779297,82.179,123.779297,82.432,,,,
124.145508,82.345,124.145508,82.213,124.145508,82.465,,,,
124.511719,82.379,124.511719,82.248,124.511719,82.498,,,,
124.87793,82.413,124.87793,82.281,124.87793,82.531,,,,
125.244141,82.446,125.244141,82.315,125.244141,82.564,,,,
125.610352,82.479,125.610352,82.348,125.610352,82.597,,,,
125.976562,82.511,125.976562,82.381,125.976562,82.631,,,,
126.342773,82.544,126.342773,82.414,126.342773,82.664,,,,
126.708984,82.576,126.708984,82.447,126.708984,82.697,,,,
127.075195,82.608,127.075195,82.48,127.075195,82.73,,,,
127.441406,82.64,127.441406,82.513,127.441406,82.763,,,,
127.807617,82.672,127.807617,82.546,127.807617,82.796,,,,
128.173828,82.703,128.173828,82.578,128.173828,82.829,,,,
128.540039,82.734,128.540039,82.61,128.540039,82.862,,,,
128.90625,82.766,128.90625,82.642,128.90625,82.894,,,,
129.272461,82.797,129.272461,82.674,129.272461,82.926,,,,
129.638672,82.828,129.638672,82.706,129.638672,82.957,,,,
130.004883,82.859,130.004883,82.737,130.004883,82.989,,,,
130.371094,82.89,130.371094,82.768,130.371094,83.02,,,,
130.737305,82.92,130.737305,82.799,130.737305,83.051,,,,
131.103516,82.951,131.103516,82.83,131.103516,83.082,,,,
131.469727,82.982,131.469727,82.861,131.469727,83.114,,,,
131.835938,83.012,131.835938,82.892,131.835938,83.145,,,,
132.202148,83.043,132.202148,82.923,132.202148,83.176,,,,
132.568359,83.073,132.568359,82.953,132.568359,83.206,,,,
132.93457,83.103,132.93457,82.984,132.93457,83.237,,,,
133.300781,83.133,133.300781,83.014,133.300781,83.267,,,,
133.666992,83.162,133.666992,83.044,133.666992,83.297,,,,
134.033203,83.192,134.033203,83.074,134.033203,83.326,,,,
134.399414,83.221,134.399414,83.104,134.399414,83.356,,,,
134.765625,83.25,134.765625,83.134,134.765625,83.386,,,,
135.131836,83.28,135.131836,83.164,135.131836,83.415,,,,
135.498047,83.309,135.498047,83.193,135.498047,83.445,,,,
135.864258,83.338,135.864258,83.223,135.864258,83.474,,,,
136.230469,83.367,136.230469,83.252,136.230469,83.504,,,,
136.59668,83.396,136.59668,83.281,136.59668,83.533,,,,
136.962891,83.424,136.962891,83.311,136.962891,83.562,,,,
137.329102,83.452,137.329102,83.34,137.329102,83.591,,,,
137.695312,83.48,137.695312,83.369,137.695312,83.62,,,,
138.061523,83.507,138.061523,83.398,138.061523,83.648,,,,
138.427734,83.534,138.427734,83.427,138.427734,83.677,,,,
138.793945,83.562,138.793945,83.455,138.793945,83.705,,,,
139.160156,83.589,139.160156,83.484,139.160156,83.734,,,,
139.526367,83.616,139.526367,83.512,139.526367,83.762,,,,
139.892578,83.643,139.892578,83.54,139.892578,83.79,,,,
140.258789,83.67,140.258789,83.569,140.258789,83.819,,,,
140.625,83.697,140.625,83.597,140.625,83.847,,,,
140.991211,83.724,140.991211,83.625,140.991211,83.875,,,,
141.357422,83.75,141.357422,83.653,141.357422,83.903,,,,
141.723633,83.777,141.723633,83.681,141.723633,83.931,,,,
142.089844,83.804,142.089844,83.709,142.089844,83.959,,,,
142.456055,83.83,142.456055,83.737,142.456055,83.986,,,,
142.822266,83.857,142.822266,83.764,142.822266,84.014,,,,
143.188477,83.883,143.188477,83.791,143.188477,84.042,,,,
143.554688,83.909,143.554688,83.819,143.554688,84.07,,,,
143.920898,83.936,143.920898,83.846,143.920898,84.097,,,,
144.287109,83.962,144.287109,83.873,144.287109,84.124,,,,
144.65332,83.988,144.65332,83.899,144.65332,84.151,,,,
145.019531,84.013,145.019531,83.926,145.019531,84.178,,,,
145.385742,84.039,145.385742,83.953,145.385742,84.204,,,,
145.751953,84.065,145.751953,83.98,145.751953,84.23,,,,
146.118164,84.091,146.118164,84.007,146.118164,84.256,,,,
146.484375,84.116,146.484375,84.034,146.484375,84.281,,,,
146.850586,84.141,146.850586,84.06,146.850586,84.307,,,,
147.216797,84.166,147.216797,84.087,147.216797,84.332,,,,
147.583008,84.191,147.583008,84.113,147.583008,84.357,,,,
147.949219,84.215,147.949219,84.14,147.949219,84.381,,,,
148.31543,84.239,148.31543,84.166,148.31543,84.406,,,,
148.681641,84.264,148.681641,84.192,148.681641,84.432,,,,
